Frequency (1/cm), 100%, 89.58%, 79.26%, 69.04%, 58.91%, 48.87%, 38.92%, 29.06%, 19.28%, 9.6%, 0% 
0,-0.45625,-0.27022,-0.23067,-0.24187,-0.12978,-0.032401,0.026821,-0.0058317,-0.18253,-0.16281,-0.0088408
0.51318,-0.18329,-0.067778,-0.079311,-0.091113,-0.03496,0.020108,0.053806,0.035621,-0.070275,-0.063332,0.0062821
1.0264,0.111,0.13571,0.08877,0.062386,0.060709,0.081282,0.08223,0.071999,0.0054564,0.00089338,0.021342
1.5395,0.28479,0.24436,0.18212,0.14235,0.11223,0.11885,0.10238,0.094413,0.040825,0.031497,0.035312
2.0527,0.39201,0.30986,0.23973,0.19113,0.14666,0.14698,0.12166,0.11457,0.066505,0.054986,0.051582
2.5659,0.46744,0.35848,0.28353,0.22882,0.17611,0.17313,0.14273,0.13612,0.090952,0.078123,0.070794
3.0791,0.52817,0.40106,0.32276,0.26328,0.20508,0.2002,0.16629,0.16006,0.11659,0.10267,0.092821
3.5922,0.58276,0.44237,0.36152,0.29777,0.23538,0.22937,0.19244,0.18663,0.14413,0.12899,0.1173
4.1054,0.63593,0.4848,0.40191,0.33393,0.26782,0.26121,0.22109,0.21578,0.17368,0.15695,0.14377
4.6186,0.69079,0.52979,0.44531,0.37274,0.3029,0.2961,0.25207,0.24738,0.20511,0.1862,0.17163
5.1318,0.74987,0.57835,0.49272,0.41494,0.34088,0.33428,0.285,0.28102,0.23798,0.21605,0.19994
5.6449,0.81511,0.63065,0.54445,0.46063,0.38146,0.37529,0.31877,0.31535,0.27107,0.24503,0.22686
6.1581,0.88557,0.68379,0.59782,0.50741,0.42212,0.41609,0.35004,0.34649,0.30096,0.2698,0.24862
6.6713,0.94956,0.72637,0.64155,0.54584,0.45464,0.447,0.37093,0.36554,0.32017,0.2841,0.25899
7.1845,0.97703,0.73762,0.65442,0.55846,0.46516,0.45223,0.3716,0.36221,0.3201,0.28244,0.25375
7.6976,0.95305,0.71467,0.63213,0.54205,0.45259,0.43164,0.35613,0.34206,0.30631,0.27199,0.24139
8.2108,0.91572,0.68881,0.60479,0.52182,0.4385,0.41069,0.3446,0.32708,0.29868,0.26927,0.23793
8.724,0.89826,0.68147,0.59454,0.51598,0.43744,0.40554,0.34692,0.32755,0.30543,0.27931,0.24782
9.2372,0.90181,0.69071,0.60062,0.5236,0.44784,0.41379,0.35938,0.33929,0.32174,0.29697,0.26571
9.7503,0.91819,0.70916,0.61616,0.5388,0.46434,0.42911,0.37648,0.35627,0.34193,0.31717,0.28632
10.264,0.94112,0.73171,0.63611,0.55735,0.48324,0.44728,0.39486,0.37481,0.36281,0.33725,0.30682
10.777,0.96702,0.75556,0.65762,0.57689,0.50253,0.46606,0.41286,0.3931,0.3829,0.3561,0.32601
11.29,0.99392,0.77926,0.67915,0.59617,0.52117,0.4843,0.42974,0.41028,0.40156,0.37326,0.34341
11.803,1.0207,0.80204,0.69985,0.61452,0.53862,0.50143,0.44514,0.42601,0.41852,0.38862,0.35892
12.316,1.0465,0.82345,0.71923,0.63157,0.55459,0.51717,0.45897,0.44015,0.43371,0.40218,0.37256
12.829,1.0711,0.84328,0.73704,0.64718,0.56902,0.53144,0.4713,0.45275,0.44718,0.41406,0.38452
13.343,1.0939,0.8615,0.75325,0.66141,0.582,0.54435,0.48235,0.46402,0.4591,0.42452,0.39508
13.856,1.115,0.8783,0.76803,0.67448,0.59385,0.55619,0.49252,0.47431,0.46983,0.43394,0.40465
14.369,1.1345,0.89408,0.78181,0.68687,0.60507,0.56744,0.50237,0.48415,0.47986,0.44286,0.4138
14.882,1.1527,0.90947,0.79522,0.6992,0.61634,0.57872,0.51257,0.49415,0.48983,0.45191,0.42316
15.395,1.1705,0.92519,0.80902,0.71216,0.62837,0.5907,0.52378,0.50492,0.50038,0.46174,0.43332
15.908,1.1886,0.94193,0.82391,0.72633,0.64176,0.60393,0.53647,0.51693,0.51203,0.47285,0.44474
16.422,1.2076,0.96015,0.84033,0.74207,0.65681,0.61869,0.55084,0.53038,0.52508,0.48546,0.45757
16.935,1.2281,0.97999,0.85845,0.7594,0.67353,0.63497,0.56675,0.54518,0.5395,0.49952,0.47172
17.448,1.2503,1.0013,0.87813,0.77812,0.69166,0.65252,0.58387,0.56105,0.55508,0.51475,0.48688
17.961,1.2739,1.0238,0.89903,0.79787,0.7108,0.67099,0.60176,0.57762,0.57146,0.53078,0.50267
18.474,1.2987,1.0471,0.92078,0.81828,0.73054,0.68998,0.62002,0.59453,0.58829,0.54723,0.51872
18.987,1.3246,1.0709,0.94303,0.83902,0.75056,0.70919,0.63835,0.61153,0.60531,0.56382,0.53478
19.501,1.351,1.0949,0.96554,0.85986,0.77062,0.72841,0.65657,0.62844,0.6223,0.58038,0.55067
20.014,1.378,1.119,0.98812,0.88069,0.79059,0.74754,0.6746,0.64521,0.63919,0.5968,0.56633
20.527,1.4052,1.1431,1.0107,0.90144,0.81045,0.76655,0.69245,0.66185,0.65596,0.6131,0.58179
21.04,1.4325,1.1671,1.0333,0.92216,0.83023,0.78547,0.7102,0.67846,0.67266,0.62934,0.59711
21.553,1.46,1.1911,1.0559,0.94291,0.85001,0.80442,0.72797,0.69515,0.68939,0.64561,0.61243
22.067,1.4876,1.2153,1.0786,0.9638,0.86994,0.8235,0.74591,0.71208,0.70629,0.66207,0.62791
22.58,1.5155,1.2397,1.1016,0.98499,0.89016,0.84288,0.7642,0.72945,0.72352,0.67887,0.64371
23.093,1.5435,1.2645,1.125,1.0066,0.91087,0.86274,0.78305,0.74743,0.74125,0.6962,0.66005
23.606,1.572,1.2898,1.149,1.0289,0.93225,0.88326,0.80263,0.76625,0.75969,0.71423,0.67711
24.119,1.601,1.3159,1.1737,1.052,0.95449,0.90463,0.82315,0.78608,0.77902,0.73316,0.69509
24.632,1.6306,1.3429,1.1994,1.0761,0.97778,0.92703,0.84478,0.80711,0.79942,0.75315,0.71417
25.146,1.6611,1.3709,1.2262,1.1013,1.0022,0.95059,0.86764,0.82945,0.82102,0.77432,0.73449
25.659,1.6925,1.4001,1.2541,1.1277,1.028,0.9754,0.89179,0.85317,0.84391,0.79674,0.75611
26.172,1.7248,1.4304,1.2832,1.1553,1.0549,1.0015,0.91722,0.87822,0.86809,0.82039,0.77904
26.685,1.758,1.4618,1.3134,1.184,1.083,1.0287,0.94378,0.90446,0.89345,0.84516,0.80315
27.198,1.792,1.4941,1.3444,1.2135,1.112,1.0568,0.97123,0.9316,0.91978,0.87081,0.82822
27.711,1.8265,1.5269,1.3759,1.2436,1.1416,1.0855,0.99922,0.95926,0.94675,0.89703,0.85393
28.225,1.8612,1.5598,1.4075,1.2738,1.1713,1.1145,1.0273,0.98699,0.97394,0.92341,0.87987
28.738,1.8957,1.5923,1.4387,1.3037,1.2006,1.1432,1.0551,1.0143,1.0009,0.94951,0.90558
29.251,1.9294,1.624,1.4691,1.3327,1.2291,1.1712,1.082,1.0406,1.0272,0.97491,0.93061
29.764,1.962,1.6543,1.4981,1.3605,1.2563,1.1981,1.1078,1.0656,1.0524,0.99921,0.95459
30.277,1.993,1.6831,1.5255,1.3868,1.2819,1.2236,1.1321,1.089,1.0761,1.0221,0.9772
30.791,2.0222,1.7098,1.551,1.4112,1.3056,1.2473,1.1548,1.1104,1.0983,1.0435,0.99823
31.304,2.0493,1.7346,1.5744,1.4337,1.3274,1.2693,1.1757,1.1299,1.1186,1.0631,1.0176
31.817,2.0742,1.7571,1.5957,1.4542,1.3471,1.2894,1.1948,1.1475,1.1371,1.0811,1.0352
32.33,2.0969,1.7777,1.615,1.4729,1.3649,1.3076,1.2123,1.1632,1.1538,1.0974,1.0513
32.843,2.1175,1.7963,1.6324,1.4898,1.3809,1.3242,1.2284,1.1772,1.1689,1.1122,1.0658
33.356,2.1362,1.8132,1.6481,1.5052,1.3953,1.3393,1.2433,1.1898,1.1825,1.1257,1.0791
33.87,2.1533,1.8288,1.6625,1.5193,1.4084,1.3531,1.2572,1.2012,1.1948,1.138,1.0913
34.383,2.1691,1.8433,1.6759,1.5327,1.4205,1.366,1.2706,1.2119,1.2062,1.1495,1.1027
34.896,2.1843,1.8573,1.6891,1.5458,1.4323,1.3785,1.2841,1.2226,1.2171,1.1607,1.1141
35.409,2.1998,1.8717,1.7031,1.56,1.4448,1.3916,1.2988,1.2343,1.2287,1.1726,1.1262
35.922,2.2177,1.8883,1.7202,1.5774,1.4601,1.4072,1.3171,1.2494,1.2429,1.187,1.1412
36.435,2.2421,1.9108,1.7447,1.6028,1.4826,1.4296,1.3432,1.2727,1.2641,1.2084,1.1633
36.949,2.2816,1.9468,1.7859,1.6458,1.5213,1.4676,1.3862,1.314,1.3017,1.2458,1.2009
37.462,2.3498,2.0083,1.8578,1.7213,1.5901,1.5354,1.4591,1.3883,1.371,1.3143,1.2672
37.975,2.4513,2.0977,1.962,1.8306,1.6908,1.6376,1.5601,1.4976,1.4772,1.4178,1.3647
38.488,2.5471,2.1783,2.053,1.9257,1.7794,1.7334,1.6397,1.5914,1.5759,1.5113,1.4525
39.001,2.5921,2.2151,2.0867,1.9594,1.8118,1.7749,1.6596,1.6189,1.6135,1.5454,1.4859
39.515,2.6012,2.2245,2.0851,1.9551,1.8085,1.7781,1.649,1.6062,1.6084,1.5409,1.482
40.028,2.6037,2.2303,2.0792,1.9459,1.7998,1.7735,1.6381,1.5892,1.5951,1.5299,1.4709
40.541,2.6116,2.2412,2.0801,1.9436,1.7971,1.7739,1.6353,1.5799,1.5869,1.5245,1.4648
41.054,2.6275,2.2592,2.0893,1.9498,1.8022,1.7815,1.641,1.5795,1.5861,1.5263,1.4655
41.567,2.6513,2.284,2.1062,1.9635,1.8143,1.7962,1.6542,1.5869,1.592,1.5347,1.4727
42.08,2.6823,2.315,2.1297,1.984,1.8328,1.8172,1.6738,1.6009,1.6034,1.5488,1.4854
42.594,2.72,2.3519,2.1592,2.0104,1.8571,1.8439,1.6993,1.6209,1.6197,1.5679,1.5031
43.107,2.7641,2.3943,2.1944,2.0422,1.887,1.8762,1.7305,1.6465,1.6405,1.5919,1.5255
43.62,2.8142,2.4421,2.2349,2.0795,1.9227,1.914,1.7679,1.6779,1.6654,1.6207,1.5528
44.133,2.8699,2.4949,2.2807,2.1222,1.9645,1.9576,1.812,1.7153,1.6947,1.6548,1.5852
44.646,2.9309,2.5526,2.3321,2.1706,2.0132,2.0076,1.8641,1.7598,1.7289,1.6947,1.6237
45.159,2.997,2.6149,2.3896,2.2254,2.0703,2.0649,1.926,1.8127,1.7689,1.7418,1.6698
45.673,3.0687,2.6822,2.4544,2.2875,2.1379,2.1312,2.0005,1.8764,1.8162,1.7976,1.7254
46.186,3.148,2.7548,2.5287,2.3576,2.2187,2.2084,2.0905,1.9535,1.8729,1.8635,1.793
46.699,3.239,2.8327,2.614,2.4344,2.3144,2.2972,2.1967,2.0457,1.9403,1.9388,1.8734
47.212,3.3459,2.9116,2.7071,2.5107,2.4216,2.3931,2.3106,2.1493,2.0157,2.0162,1.9619
47.725,3.4615,2.9754,2.7903,2.5683,2.5216,2.4786,2.4032,2.2465,2.0875,2.0774,2.0411
48.238,3.5452,2.995,2.8272,2.5845,2.5787,2.5238,2.4336,2.3041,2.1345,2.1009,2.0841
48.752,3.5323,2.9534,2.7925,2.5535,2.5681,2.5111,2.3948,2.2997,2.1408,2.0826,2.0784
49.265,3.4206,2.8672,2.7048,2.4932,2.5064,2.4552,2.3218,2.2474,2.1114,2.0403,2.0392
49.778,3.2729,2.7662,2.6,2.4248,2.4262,2.383,2.2461,2.1755,2.0636,1.9927,1.9887
50.291,3.1323,2.6696,2.4995,2.3602,2.3473,2.3115,2.18,2.1018,2.0114,1.9495,1.9398
50.804,3.0116,2.5845,2.4107,2.3038,2.2765,2.2473,2.1251,2.0321,1.9614,1.9133,1.8962
51.318,2.9118,2.5127,2.3347,2.2568,2.2151,2.1923,2.0801,1.9677,1.916,1.8842,1.8583
51.831,2.8309,2.4542,2.2708,2.2198,2.1631,2.1468,2.0439,1.9077,1.8757,1.8621,1.8253
52.344,2.767,2.4091,2.2182,2.1937,2.1203,2.1113,2.0161,1.8515,1.8406,1.8472,1.7967
52.857,2.7196,2.3783,2.1767,2.1803,2.0874,2.0867,1.9972,1.7978,1.8109,1.841,1.7723
53.37,2.6897,2.3643,2.1474,2.1835,2.0659,2.0753,1.9887,1.7455,1.7874,1.8459,1.7522
53.883,2.6814,2.3734,2.1332,2.2118,2.0597,2.0819,1.994,1.6926,1.7715,1.8676,1.7372
54.397,2.7062,2.4217,2.1425,2.2851,2.0776,2.1177,2.019,1.6364,1.767,1.9175,1.7287
54.91,2.7976,2.5567,2.2017,2.4628,2.1434,2.2125,2.0722,1.5733,1.7844,2.023,1.7303
55.423,3.0802,2.9787,2.4161,3.0309,2.3326,2.462,2.1373,1.5078,1.8598,2.2405,1.7518
55.936,3.5223,3.4809,3.5309,3.0677,2.775,2.7691,2.0181,1.5067,2.1178,2.2399,1.8134
56.449,2.676,2.3725,2.5901,2.0284,2.278,2.0798,1.7653,1.7137,2.2614,1.6546,1.8131
56.962,2.4358,2.1447,2.1912,1.8356,1.9663,1.8875,1.7118,1.9163,1.9643,1.5058,1.7478
57.476,2.4193,2.121,2.1104,1.8371,1.9037,1.8914,1.747,1.9751,1.8683,1.5277,1.7402
57.989,2.4556,2.1539,2.1098,1.8864,1.9124,1.946,1.8073,1.9945,1.8558,1.581,1.7618
58.502,2.5176,2.2147,2.1458,1.9572,1.9525,2.0289,1.8845,2.0222,1.8804,1.6458,1.8014
59.015,2.6049,2.3013,2.2108,2.0491,2.0175,2.1441,1.9837,2.0709,1.9312,1.7235,1.8584
59.528,2.7259,2.4215,2.3084,2.1697,2.1113,2.3075,2.1167,2.1471,2.0074,1.8199,1.9362
